 B Density=2.34
 Energy(eV), Delta, Beta
  30.  0.270872056  0.0869088843
  32.1455765  0.238954186  0.0733054578
  34.4446106  0.210872278  0.0618546084
  36.908062  0.186065853  0.0519781411
  39.5477028  0.163965151  0.0436240807
  42.3761292  0.144377097  0.0364818498
  45.4068375  0.126980841  0.0304739252
  48.6543007  0.111558661  0.0253804233
  52.1340256  0.0979330912  0.0210511684
  55.8626137  0.0858028904  0.0174131878
  59.8578682  0.0751017556  0.0143926125
  64.1388626  0.0656448156  0.0118257143
  68.7260284  0.0572754927  0.00970552396
  73.6412659  0.0499005951  0.00792438816
  78.9080353  0.0433791131  0.00645513646
  84.5514908  0.0376317091  0.00523721753
  90.5985489  0.0325585008  0.0042400714
  97.0780945  0.0280859843  0.00342210382
  104.021049  0.0241434686  0.00274259155
  111.460571  0.0206286665  0.00220537605
  119.432152  0.0175409224  0.00177378207
  127.973854  0.0147753218  0.00141736725
  137.12645  0.0122760991  0.00113038195
  146.93364  0.00996230636  0.000900299347
  157.44223  0.00773413153  0.000712591282
  168.702393  0.00531589286  0.000554578321
  180.767868  0.00159830065  0.000441293523
  193.696259  0.00144743943  0.00985184684
  207.549271  0.00510947546  0.00797327515
  222.393066  0.00602270244  0.00638039503
  238.298462  0.00610067742  0.00507638836
  255.3414  0.00583875878  0.00403895555
  273.603241  0.00543101039  0.00321292458
  293.171143  0.00496402243  0.00253745983
  314.13855  0.00447129505  0.00200033048
  336.60553  0.00399129698  0.00157694484
  360.679321  0.00354094896  0.00124316721
  386.474854  0.00312820496  0.000980099547
  414.115234  0.00275697745  0.000768643164
  443.732513  0.00241961307  0.000600666797
  475.467926  0.00211849576  0.000467654667
  509.473053  0.00185026985  0.000363571395
  545.910217  0.00161365524  0.000281818415
  584.953369  0.00140525913  0.000218732108
  626.788818  0.00122319313  0.000169291365
  671.616333  0.00106350367  0.000129372842
  719.64978  0.000923683168  0.000100343248
  771.118713  0.000802400114  7.71652485E-05
  826.268555  0.00069678959  5.92287543E-05
  885.362732  0.000604970264  4.53450957E-05
  948.683228  0.00052507146  3.46936358E-05
  1016.53247  0.00045581517  2.66037496E-05
  1089.23413  0.000395721494  2.02769952E-05
  1167.13525  0.000343530643  1.54484187E-05
  1250.60803  0.000298254075  1.17688605E-05
  1340.05066  0.000258981716  8.95880657E-06
  1435.89014  0.000224916424  6.81913343E-06
  1538.58398  0.000195370492  5.18325305E-06
  1648.62244  0.00016972913  3.93430309E-06
  1766.53088  0.000147479164  2.98481928E-06
  1892.87195  0.000128165528  2.26111752E-06
  2028.24878  0.000111398382  1.71449426E-06
  2173.30762  9.68430104E-05  1.29709679E-06
  2328.74097  8.42007939E-05  9.80487926E-07
  2495.29102  7.32192057E-05  7.40580049E-07
  2673.75244  6.36784171E-05  5.58916838E-07
  2864.97754  5.53878272E-05  4.21503017E-07
  3069.87866  4.81822608E-05  3.17625535E-07
  3289.43433  4.19186981E-05  2.39173943E-07
  3524.69238  3.64731422E-05  1.79977633E-07
  3776.77588  3.17379381E-05  1.35345559E-07
  4046.88818  2.76198516E-05  1.01758957E-07
  4336.31885  2.40380668E-05  7.6461113E-08
  4646.44971  2.09223035E-05  5.74511319E-08
  4978.76025  1.82116055E-05  4.31680682E-08
  5334.83789  1.58530893E-05  3.24379386E-08
  5716.38135  1.38007754E-05  2.43810554E-08
  6125.21289  1.20147615E-05  1.83328783E-08
  6563.28418  1.0460366E-05  1.37929987E-08
  7032.68555  9.10743438E-06  1.03874447E-08
  7535.6582  7.92979063E-06  7.83351872E-09
  8074.60352  6.90464776E-06  5.91891691E-09
  8652.09277  6.01221427E-06  4.48275461E-09
  9270.88574  5.23526978E-06  3.40651707E-09
  9933.93262  4.55883765E-06  2.59983546E-09
  10644.4004  3.96989526E-06  1.99401562E-09
  11405.6807  3.45709987E-06  1.53943092E-09
  12221.4062  3.01059231E-06  1.19815879E-09
  13095.4736  2.62179674E-06  9.41609679E-10
  14032.0527  2.28324166E-06  7.48433038E-10
  15035.6152  1.98843054E-06  6.02568384E-10
  16110.9521  1.73170247E-06  4.90732677E-10
  17263.1973  1.50813571E-06  4.05473849E-10
  18497.8477  1.31344484E-06  3.40091372E-10
  19820.8008  1.14389411E-06  2.89570701E-10
  21238.3711  9.96238555E-07  2.49099547E-10
  22757.3242  8.67647486E-07  2.1695036E-10
  24384.9121  7.55658618E-07  1.91160046E-10
  26128.9023  6.58128442E-07  1.70183492E-10
  27997.625  5.73188117E-07  1.52876503E-10
  29999.9961  4.99212035E-07  1.38390507E-10
