 Co3FeB Density=8.47
 Energy(eV), Delta, Beta
  30.  0.31400013  0.274883151
  32.1455765  0.285616666  0.237048611
  34.4446106  0.257839054  0.202514499
  36.908062  0.228062481  0.171821088
  39.5477028  0.198560834  0.146740392
  42.3761292  0.170561656  0.125306815
  45.4068375  0.142721117  0.106909439
  48.6543007  0.113556363  0.0912419483
  52.1340256  0.0762615129  0.0785900652
  55.8626137  0.0417692028  0.108585447
  59.8578682  0.0311477091  0.150401875
  64.1388626  0.0864592046  0.146716133
  68.7260284  0.0935358852  0.116096348
  73.6412659  0.0890567452  0.0946804732
  78.9080353  0.0803066641  0.0799784809
  84.5514908  0.0734176785  0.0697120726
  90.5985489  0.0670436621  0.0608226284
  97.0780945  0.0612810962  0.0535405725
  104.021049  0.056397479  0.0471122116
  111.460571  0.0517629646  0.0408851467
  119.432152  0.0472330824  0.0354771502
  127.973854  0.0429962315  0.0307716597
  137.12645  0.0391995795  0.0265144575
  146.93364  0.0354855955  0.022743525
  157.44223  0.0320199877  0.0194626953
  168.702393  0.0287477765  0.0165225156
  180.767868  0.0254076365  0.0139962332
  193.696259  0.0229162611  0.0133396816
  207.549271  0.0211602282  0.0110853752
  222.393066  0.0191062503  0.00917161722
  238.298462  0.0170915723  0.00760998204
  255.3414  0.0152322371  0.00630051969
  273.603241  0.0135365138  0.00521011045
  293.171143  0.0119922673  0.00426686136
  314.13855  0.0105755543  0.00348503632
  336.60553  0.00930066034  0.00284178206
  360.679321  0.00814915914  0.00229796977
  386.474854  0.00710842945  0.00185684056
  414.115234  0.00618465152  0.00150171982
  443.732513  0.00535994954  0.00121033785
  475.467926  0.00462508062  0.000974086754
  509.473053  0.00396870635  0.000782179006
  545.910217  0.00337843341  0.000628573354
  584.953369  0.00284257834  0.0005046468
  626.788818  0.00234107487  0.000406566716
  671.616333  0.00182257139  0.000324627734
  719.64978  0.00128950423  0.000670588226
  771.118713  0.000627048081  0.000532955397
  826.268555  0.00128300628  0.00131044432
  885.362732  0.00138839427  0.0010606969
  948.683228  0.00135082868  0.000916547084
  1016.53247  0.00129958789  0.000724880025
  1089.23413  0.00119622424  0.000574234407
  1167.13525  0.00108245527  0.000454348279
  1250.60803  0.000969647022  0.000359386846
  1340.05066  0.00086224312  0.000283212546
  1435.89014  0.000762356329  0.000223083131
  1538.58398  0.000671636604  0.000175383073
  1648.62244  0.000589642557  0.000137610768
  1766.53088  0.000516618311  0.00010782497
  1892.87195  0.000451580447  8.41194487E-05
  2028.24878  0.000394052186  6.56478587E-05
  2173.30762  0.00034347648  5.10587379E-05
  2328.74097  0.000299039617  3.96513678E-05
  2495.29102  0.000260125962  3.07515111E-05
  2673.75244  0.000226123258  2.38216999E-05
  2864.97754  0.000196465422  1.84357832E-05
  3069.87866  0.00017062937  1.42558793E-05
  3289.43433  0.000148144492  1.10162155E-05
  3524.69238  0.000128590138  8.50820379E-06
  3776.77588  0.000111592351  6.56850762E-06
  4046.88818  9.68201057E-05  5.06949345E-06
  4336.31885  8.39831555E-05  3.91192725E-06
  4646.44971  7.28255472E-05  3.01850491E-06
  4978.76025  6.31225121E-05  2.32920411E-06
  5334.83789  5.46756892E-05  1.79768608E-06
  5716.38135  4.73075379E-05  1.38779092E-06
  6125.21289  4.08522283E-05  1.07179483E-06
  6563.28418  3.51240305E-05  8.28174507E-07
  7032.68555  2.95599311E-05  6.4033145E-07
  7535.6582  2.53717644E-05  1.28597321E-06
  8074.60352  2.30372298E-05  3.06513107E-06
  8652.09277  2.08022848E-05  2.40368968E-06
  9270.88574  1.84524561E-05  1.87888065E-06
  9933.93262  1.62558172E-05  1.46445257E-06
  10644.4004  1.42662875E-05  1.13849239E-06
  11405.6807  1.24900816E-05  8.83097414E-07
  12221.4062  1.09167777E-05  6.83631185E-07
  13095.4736  9.53018025E-06  5.28257772E-07
  14032.0527  8.31245688E-06  4.07544547E-07
  15035.6152  7.24565098E-06  3.13970332E-07
  16110.9521  6.31268085E-06  2.41562731E-07
  17263.1973  5.49788774E-06  1.85641341E-07
  18497.8477  4.78702668E-06  1.42523547E-07
  19820.8008  4.16728199E-06  1.09322151E-07
  21238.3711  3.62731566E-06  8.37874197E-08
  22757.3242  3.15703596E-06  6.41752038E-08
  24384.9121  2.74758304E-06  4.91275962E-08
  26128.9023  2.39117753E-06  3.75932849E-08
  27997.625  2.08098936E-06  2.87598922E-08
  29999.9961  1.81090161E-06  2.20003695E-08
