 Cu Density=8.96
 Energy(eV), Delta, Beta
  30.  0.110663109  0.314656973
  32.1455765  0.131642312  0.286169648
  34.4446106  0.138535142  0.241316855
  36.908062  0.123710297  0.199076504
  39.5477028  0.104752578  0.176231727
  42.3761292  0.0880399346  0.159861267
  45.4068375  0.0779614225  0.149286062
  48.6543007  0.0717595741  0.138451964
  52.1340256  0.0660688877  0.127555355
  55.8626137  0.0610408597  0.11769034
  59.8578682  0.0570532754  0.108684912
  64.1388626  0.0537630059  0.0998529792
  68.7260284  0.0510417074  0.0916413665
  73.6412659  0.0482857302  0.0828502029
  78.9080353  0.0448898189  0.0749451891
  84.5514908  0.0413982533  0.0679874867
  90.5985489  0.0381228104  0.0623894855
  97.0780945  0.035441149  0.0574152246
  104.021049  0.0333760194  0.0530197397
  111.460571  0.0318579599  0.0488014892
  119.432152  0.0306233913  0.0448282249
  127.973854  0.0298095085  0.0406554416
  137.12645  0.0287407152  0.036649894
  146.93364  0.0280877221  0.0328885578
  157.44223  0.027052829  0.0286404323
  168.702393  0.0257561058  0.0249410272
  180.767868  0.024492491  0.0211852212
  193.696259  0.0227505602  0.0178423058
  207.549271  0.0209716838  0.014875331
  222.393066  0.0190258306  0.0123606296
  238.298462  0.0171739869  0.0102955624
  255.3414  0.0154506359  0.00853720028
  273.603241  0.0138158742  0.00706305541
  293.171143  0.0123115014  0.00584347127
  314.13855  0.010954068  0.0048159929
  336.60553  0.00969990157  0.00395241519
  360.679321  0.0085655963  0.00324314437
  386.474854  0.00754706934  0.00265545538
  414.115234  0.00665020384  0.00216783048
  443.732513  0.00582312001  0.00173171225
  475.467926  0.00505486084  0.00140123768
  509.473053  0.00440185843  0.0011510374
  545.910217  0.00382406032  0.000929155969
  584.953369  0.00330878282  0.000749089988
  626.788818  0.00284630246  0.00059718726
  671.616333  0.00242872885  0.000473354536
  719.64978  0.00204284443  0.000376470183
  771.118713  0.00169168925  0.000306367525
  826.268555  0.0013494048  0.000244730676
  885.362732  0.000929398462  0.000189621525
  948.683228  0.000518463727  0.00116385566
  1016.53247  0.00100441673  0.000890084251
  1089.23413  0.00100659893  0.000718139636
  1167.13525  0.000965934945  0.000595926482
  1250.60803  0.000911473995  0.000492849445
  1340.05066  0.000844000431  0.000389324821
  1435.89014  0.000762687239  0.000305855792
  1538.58398  0.000681467471  0.000240181194
  1648.62244  0.000604402972  0.000188532693
  1766.53088  0.000533549523  0.000147844432
  1892.87195  0.000469042774  0.000115581563
  2028.24878  0.0004110882  9.03881009E-05
  2173.30762  0.000359549711  7.05057173E-05
  2328.74097  0.000313867116  5.49326505E-05
  2495.29102  0.000273601006  4.27560808E-05
  2673.75244  0.000238236054  3.32504023E-05
  2864.97754  0.00020726971  2.58387881E-05
  3069.87866  0.000180212737  2.00646591E-05
  3289.43433  0.000156609836  1.55708949E-05
  3524.69238  0.000136046598  1.20766817E-05
  3776.77588  0.000118148979  9.36144716E-06
  4046.88818  0.000102581864  7.25280097E-06
  4336.31885  8.90475421E-05  5.61601519E-06
  4646.44971  7.72840358E-05  4.34627236E-06
  4978.76025  6.70607114E-05  3.36158155E-06
  5334.83789  5.81742352E-05  2.59827812E-06
  5716.38135  5.0447692E-05  2.00683712E-06
  6125.21289  4.37247763E-05  1.54879899E-06
  6563.28418  3.78670593E-05  1.19402387E-06
  7032.68555  3.27501548E-05  9.19518413E-07
  7535.6582  2.82549736E-05  7.07173342E-07
  8074.60352  2.42405185E-05  5.43010799E-07
  8652.09277  2.03624677E-05  4.16171105E-07
  9270.88574  1.78574592E-05  2.50495623E-06
  9933.93262  1.639111E-05  1.96693213E-06
  10644.4004  1.45984513E-05  1.53909411E-06
  11405.6807  1.28861338E-05  1.20073514E-06
  12221.4062  1.13224314E-05  9.34318507E-07
  13095.4736  9.92013702E-06  7.25303494E-07
  14032.0527  8.67517338E-06  5.61886907E-07
  15035.6152  7.5762714E-06  4.34496428E-07
  16110.9521  6.61007743E-06  3.35425284E-07
  17263.1973  5.76296361E-06  2.58565649E-07
  18497.8477  5.02174862E-06  1.9905977E-07
  19820.8008  4.37411336E-06  1.53070701E-07
  21238.3711  3.80889878E-06  1.17582012E-07
  22757.3242  3.31602996E-06  9.02412722E-08
  24384.9121  2.88650722E-06  6.92049653E-08
  26128.9023  2.51236224E-06  5.30386046E-08
  27997.625  2.18657965E-06  4.06286453E-08
  29999.9961  1.90297703E-06  3.11117105E-08
